Wavelength(nm)	PFD(umol m-2 s-1)
380	0.006606
381	0.006697
382	0.006910
383	0.007129
384	0.006767
385	0.006462
386	0.006554
387	0.006627
388	0.006644
389	0.006489
390	0.006033
391	0.005972
392	0.006336
393	0.006468
394	0.006445
395	0.006890
396	0.007519
397	0.008355
398	0.009234
399	0.010066
400	0.010987
401	0.012888
402	0.014916
403	0.017411
404	0.020298
405	0.023991
406	0.028486
407	0.033971
408	0.040644
409	0.048223
410	0.057857
411	0.068421
412	0.081929
413	0.096138
414	0.114229
415	0.133000
416	0.156710
417	0.181515
418	0.210417
419	0.241160
420	0.275580
421	0.312645
422	0.352871
423	0.395823
424	0.440789
425	0.489770
426	0.540508
427	0.595182
428	0.650791
429	0.712247
430	0.774349
431	0.838609
432	0.902902
433	0.966676
434	1.028685
435	1.087565
436	1.139006
437	1.183299
438	1.216002
439	1.242343
440	1.248152
441	1.248106
442	1.226391
443	1.201450
444	1.155963
445	1.107549
446	1.047089
447	0.983752
448	0.914714
449	0.845739
450	0.776890
451	0.710866
452	0.646608
453	0.588841
454	0.533142
455	0.485453
456	0.438893
457	0.401450
458	0.365028
459	0.334086
460	0.304678
461	0.278705
462	0.254459
463	0.232221
464	0.212587
465	0.194571
466	0.178639
467	0.163310
468	0.150633
469	0.138329
470	0.128459
471	0.119154
472	0.112018
473	0.105367
474	0.099570
475	0.094662
476	0.090563
477	0.087329
478	0.084497
479	0.082746
480	0.081200
481	0.081149
482	0.081294
483	0.082470
484	0.084009
485	0.086328
486	0.089535
487	0.093711
488	0.098903
489	0.104671
490	0.111652
491	0.118943
492	0.127783
493	0.136879
494	0.147118
495	0.157957
496	0.170084
497	0.183073
498	0.196993
499	0.211115
500	0.225369
501	0.241270
502	0.257567
503	0.274451
504	0.291559
505	0.309479
506	0.327540
507	0.345801
508	0.364049
509	0.382292
510	0.399979
511	0.417481
512	0.434984
513	0.452447
514	0.468815
515	0.485015
516	0.500637
517	0.515770
518	0.530289
519	0.544099
520	0.557527
521	0.570388
522	0.583140
523	0.594497
524	0.605600
525	0.615635
526	0.625189
527	0.634014
528	0.642498
529	0.650763
530	0.658145
531	0.665319
532	0.671266
533	0.677182
534	0.682927
535	0.688062
536	0.692268
537	0.696490
538	0.700725
539	0.704688
540	0.708574
541	0.711198
542	0.713690
543	0.715714
544	0.717710
545	0.719671
546	0.720869
547	0.721648
548	0.722441
549	0.723200
550	0.723538
551	0.723812
552	0.723940
553	0.724099
554	0.724287
555	0.723886
556	0.723268
557	0.722723
558	0.722173
559	0.721610
560	0.720795
561	0.719614
562	0.718637
563	0.717772
564	0.716605
565	0.715347
566	0.713759
567	0.712106
568	0.710333
569	0.708621
570	0.706953
571	0.704360
572	0.701551
573	0.699202
574	0.696637
575	0.693544
576	0.690592
577	0.687767
578	0.684306
579	0.680645
580	0.677010
581	0.673462
582	0.670185
583	0.666561
584	0.662610
585	0.658062
586	0.653333
587	0.649157
588	0.644810
589	0.640044
590	0.634906
591	0.629440
592	0.624014
593	0.618616
594	0.613720
595	0.608370
596	0.602075
597	0.595944
598	0.589922
599	0.584286
600	0.578647
601	0.572622
602	0.566289
603	0.559495
604	0.553236
605	0.547230
606	0.540283
607	0.533334
608	0.526626
609	0.519853
610	0.513018
611	0.505765
612	0.498428
613	0.491745
614	0.484971
615	0.478050
616	0.471304
617	0.464646
618	0.457741
619	0.450719
620	0.443406
621	0.436060
622	0.428683
623	0.422164
624	0.415783
625	0.409048
626	0.402398
627	0.395876
628	0.389265
629	0.382593
630	0.375304
631	0.368219
632	0.361582
633	0.355327
634	0.349283
635	0.343322
636	0.336993
637	0.329661
638	0.323234
639	0.317452
640	0.310877
641	0.304482
642	0.299045
643	0.293330
644	0.287384
645	0.281828
646	0.276287
647	0.270635
648	0.265097
649	0.259656
650	0.254592
651	0.249532
652	0.244305
653	0.239301
654	0.234483
655	0.229562
656	0.224809
657	0.220717
658	0.215857
659	0.210406
660	0.206644
661	0.202858
662	0.198586
663	0.194034
664	0.189303
665	0.185109
666	0.181041
667	0.177215
668	0.173380
669	0.169534
670	0.165624
671	0.161821
672	0.158177
673	0.155187
674	0.152175
675	0.147853
676	0.143987
677	0.140561
678	0.137680
679	0.134851
680	0.131973
681	0.129032
682	0.126048
683	0.122827
684	0.119959
685	0.117641
686	0.114518
687	0.111536
688	0.110479
689	0.108363
690	0.105385
691	0.102981
692	0.100550
693	0.098005
694	0.095626
695	0.093403
696	0.091827
697	0.089814
698	0.087415
699	0.086097
700	0.084581
701	0.082549
702	0.080562
703	0.078584
704	0.076593
705	0.074546
706	0.072456
707	0.071641
708	0.070435
709	0.068650
710	0.066836
711	0.065181
712	0.064020
713	0.062898
714	0.061702
715	0.059756
716	0.058165
717	0.056878
718	0.055551
719	0.054187
720	0.052772
721	0.051961
722	0.051032
723	0.049549
724	0.048504
725	0.047637
726	0.046850
727	0.045254
728	0.043352
729	0.043465
730	0.042818
731	0.041506
732	0.040893
733	0.040278
734	0.039654
735	0.037904
736	0.036695
737	0.036564
738	0.036333
739	0.035906
740	0.035092
741	0.034823
742	0.034548
743	0.033839
744	0.033355
745	0.032950
746	0.032546
747	0.031191
748	0.029792
749	0.029920
750	0.029539
751	0.029121
752	0.029687
753	0.028631
754	0.027222
755	0.028222
756	0.027567
757	0.026203
758	0.025560
759	0.025759
760	0.025994
761	0.024474
762	0.024068
763	0.024096
764	0.023841
765	0.024195
766	0.024358
767	0.023140
768	0.022860
769	0.022779
770	0.022447
771	0.022325
772	0.022347
773	0.022554
774	0.021962
775	0.021795
776	0.022396
777	0.020702
778	0.019736
779	0.019664
780	0.020235
