Wavelength(nm)	PFD(umol m-2 s-1)
380	0.000684
381	0.000667
382	0.000697
383	0.000731
384	0.000711
385	0.000694
386	0.000696
387	0.000692
388	0.000664
389	0.000654
390	0.000676
391	0.000675
392	0.000650
393	0.000645
394	0.000653
395	0.000662
396	0.000673
397	0.000694
398	0.000717
399	0.000755
400	0.000797
401	0.000873
402	0.000955
403	0.001064
404	0.001189
405	0.001346
406	0.001546
407	0.001801
408	0.002112
409	0.002467
410	0.002924
411	0.003429
412	0.004079
413	0.004763
414	0.005667
415	0.006605
416	0.007780
417	0.009011
418	0.010457
419	0.011989
420	0.013692
421	0.015526
422	0.017518
423	0.019670
424	0.021940
425	0.024399
426	0.026940
427	0.029680
428	0.032468
429	0.035559
430	0.038689
431	0.041978
432	0.045291
433	0.048646
434	0.051947
435	0.055146
436	0.058042
437	0.060646
438	0.062673
439	0.064385
440	0.065092
441	0.065514
442	0.064712
443	0.063734
444	0.061677
445	0.059426
446	0.056363
447	0.053138
448	0.049590
449	0.045976
450	0.042289
451	0.038740
452	0.035276
453	0.032139
454	0.029105
455	0.026534
456	0.024027
457	0.021998
458	0.020030
459	0.018383
460	0.016814
461	0.015421
462	0.014137
463	0.012979
464	0.011918
465	0.010917
466	0.010038
467	0.009195
468	0.008510
469	0.007847
470	0.007315
471	0.006811
472	0.006416
473	0.006065
474	0.005790
475	0.005541
476	0.005313
477	0.005134
478	0.004977
479	0.004888
480	0.004812
481	0.004825
482	0.004845
483	0.004906
484	0.005002
485	0.005171
486	0.005369
487	0.005599
488	0.005910
489	0.006265
490	0.006700
491	0.007154
492	0.007698
493	0.008259
494	0.008894
495	0.009566
496	0.010314
497	0.011116
498	0.011977
499	0.012847
500	0.013724
501	0.014712
502	0.015727
503	0.016790
504	0.017858
505	0.018934
506	0.020030
507	0.021160
508	0.022280
509	0.023393
510	0.024504
511	0.025617
512	0.026691
513	0.027761
514	0.028791
515	0.029796
516	0.030722
517	0.031633
518	0.032525
519	0.033376
520	0.034205
521	0.034969
522	0.035721
523	0.036388
524	0.037043
525	0.037644
526	0.038211
527	0.038728
528	0.039224
529	0.039707
530	0.040108
531	0.040490
532	0.040859
533	0.041212
534	0.041497
535	0.041764
536	0.042004
537	0.042236
538	0.042463
539	0.042637
540	0.042799
541	0.042937
542	0.043065
543	0.043164
544	0.043257
545	0.043343
546	0.043397
547	0.043433
548	0.043422
549	0.043404
550	0.043391
551	0.043381
552	0.043379
553	0.043352
554	0.043303
555	0.043250
556	0.043195
557	0.043125
558	0.043055
559	0.042998
560	0.042926
561	0.042834
562	0.042765
563	0.042709
564	0.042609
565	0.042500
566	0.042387
567	0.042269
568	0.042138
569	0.042010
570	0.041882
571	0.041734
572	0.041581
573	0.041443
574	0.041287
575	0.041086
576	0.040891
577	0.040701
578	0.040496
579	0.040286
580	0.040068
581	0.039853
582	0.039646
583	0.039431
584	0.039210
585	0.038958
586	0.038698
587	0.038470
588	0.038219
589	0.037907
590	0.037614
591	0.037338
592	0.037038
593	0.036728
594	0.036359
595	0.036005
596	0.035681
597	0.035350
598	0.035013
599	0.034650
600	0.034281
601	0.033907
602	0.033534
603	0.033166
604	0.032783
605	0.032393
606	0.032015
607	0.031639
608	0.031270
609	0.030886
610	0.030486
611	0.030034
612	0.029573
613	0.029194
614	0.028806
615	0.028403
616	0.027985
617	0.027557
618	0.027158
619	0.026757
620	0.026347
621	0.025945
622	0.025550
623	0.025154
624	0.024761
625	0.024401
626	0.024017
627	0.023600
628	0.023179
629	0.022757
630	0.022373
631	0.021990
632	0.021608
633	0.021229
634	0.020851
635	0.020478
636	0.020106
637	0.019741
638	0.019379
639	0.019020
640	0.018635
641	0.018256
642	0.017914
643	0.017586
644	0.017270
645	0.016964
646	0.016649
647	0.016301
648	0.015979
649	0.015679
650	0.015358
651	0.015049
652	0.014800
653	0.014520
654	0.014214
655	0.013907
656	0.013613
657	0.013368
658	0.013099
659	0.012813
660	0.012590
661	0.012348
662	0.012042
663	0.011806
664	0.011616
665	0.011348
666	0.011091
667	0.010864
668	0.010654
669	0.010451
670	0.010221
671	0.009997
672	0.009782
673	0.009579
674	0.009380
675	0.009187
676	0.008986
677	0.008779
678	0.008592
679	0.008409
680	0.008228
681	0.008048
682	0.007867
683	0.007708
684	0.007554
685	0.007409
686	0.007277
687	0.007141
688	0.006977
689	0.006848
690	0.006749
691	0.006589
692	0.006429
693	0.006277
694	0.006155
695	0.006036
696	0.005873
697	0.005756
698	0.005679
699	0.005613
700	0.005527
701	0.005401
702	0.005311
703	0.005216
704	0.005041
705	0.004930
706	0.004866
707	0.004774
708	0.004681
709	0.004586
710	0.004488
711	0.004392
712	0.004298
713	0.004238
714	0.004187
715	0.004082
716	0.004002
717	0.003945
718	0.003864
719	0.003795
720	0.003741
721	0.003682
722	0.003622
723	0.003564
724	0.003475
725	0.003384
726	0.003341
727	0.003272
728	0.003191
729	0.003147
730	0.003106
731	0.003067
732	0.003012
733	0.002959
734	0.002909
735	0.002831
736	0.002786
737	0.002798
738	0.002722
739	0.002661
740	0.002666
741	0.002602
742	0.002545
743	0.002560
744	0.002538
745	0.002505
746	0.002478
747	0.002483
748	0.002490
749	0.002452
750	0.002422
751	0.002399
752	0.002387
753	0.002380
754	0.002375
755	0.002364
756	0.002325
757	0.002279
758	0.002275
759	0.002272
760	0.002266
761	0.002237
762	0.002210
763	0.002194
764	0.002213
765	0.002172
766	0.002138
767	0.002205
768	0.002169
769	0.002113
770	0.002093
771	0.002038
772	0.002007
773	0.002035
774	0.002109
775	0.002127
776	0.002058
777	0.002079
778	0.002055
779	0.001986
780	0.002030
