Wavelength(nm)	PFD(umol m-2 s-1)
380	1.108094
381	1.127058
382	1.135902
383	1.143664
384	1.154564
385	1.167894
386	1.197129
387	1.219918
388	1.222835
389	1.239862
390	1.281479
391	1.309664
392	1.323409
393	1.373207
394	1.447050
395	1.528214
396	1.612465
397	1.696544
398	1.780917
399	1.891198
400	2.000908
401	2.087395
402	2.176797
403	2.276446
404	2.354725
405	2.388040
406	2.419682
407	2.449217
408	2.475502
409	2.499359
410	2.527111
411	2.556640
412	2.589647
413	2.623522
414	2.641003
415	2.658663
416	2.690350
417	2.717063
418	2.723258
419	2.730750
420	2.740937
421	2.747044
422	2.748221
423	2.743917
424	2.735663
425	2.716159
426	2.692038
427	2.691964
428	2.696328
429	2.717273
430	2.740220
431	2.775807
432	2.810196
433	2.840524
434	2.882564
435	2.944054
436	3.018794
437	3.106297
438	3.173748
439	3.230208
440	3.280434
441	3.329019
442	3.373523
443	3.419313
444	3.494287
445	3.567361
446	3.631126
447	3.685819
448	3.721300
449	3.757266
450	3.793777
451	3.835553
452	3.880859
453	3.913974
454	3.942953
455	3.963089
456	3.982323
457	4.007724
458	4.033962
459	4.063903
460	4.089519
461	4.105788
462	4.117502
463	4.123966
464	4.130639
465	4.137443
466	4.147421
467	4.158398
468	4.167034
469	4.175914
470	4.191720
471	4.209333
472	4.233443
473	4.259195
474	4.287714
475	4.316325
476	4.345028
477	4.366711
478	4.385101
479	4.382351
480	4.375432
481	4.356177
482	4.338772
483	4.332232
484	4.326139
485	4.321090
486	4.316213
487	4.311531
488	4.310499
489	4.311491
490	4.334515
491	4.362861
492	4.402281
493	4.439207
494	4.458565
495	4.472515
496	4.474366
497	4.477777
498	4.482878
499	4.484306
500	4.483752
501	4.485701
502	4.488159
503	4.492217
504	4.496959
505	4.504964
506	4.515532
507	4.530793
508	4.540550
509	4.545460
510	4.537324
511	4.523879
512	4.500969
513	4.477568
514	4.462592
515	4.449979
516	4.444158
517	4.441772
518	4.443616
519	4.451509
520	4.462854
521	4.480831
522	4.500618
523	4.541463
524	4.581886
525	4.620380
526	4.653027
527	4.676986
528	4.698904
529	4.719474
530	4.738934
531	4.758142
532	4.782545
533	4.804923
534	4.818785
535	4.827356
536	4.827927
537	4.831960
538	4.838279
539	4.847385
540	4.857117
541	4.864379
542	4.872137
543	4.881633
544	4.891873
545	4.903083
546	4.919105
547	4.937780
548	4.948987
549	4.958992
550	4.969109
551	4.976413
552	4.976943
553	4.975752
554	4.972917
555	4.972552
556	4.973065
557	4.974698
558	4.975562
559	4.972819
560	4.971551
561	4.972451
562	4.974569
563	4.977378
564	4.982028
565	4.987112
566	4.993668
567	4.999825
568	5.005189
569	5.010623
570	5.016105
571	5.024408
572	5.033152
573	5.036277
574	5.042443
575	5.056344
576	5.069685
577	5.082520
578	5.093628
579	5.104135
580	5.109529
581	5.114161
582	5.116708
583	5.113727
584	5.105527
585	5.095734
586	5.085472
587	5.077731
588	5.069592
589	5.060507
590	5.052935
591	5.046671
592	5.045549
593	5.046379
594	5.057839
595	5.071113
596	5.088220
597	5.103809
598	5.118334
599	5.131062
600	5.143414
601	5.155213
602	5.165501
603	5.173466
604	5.180935
605	5.188157
606	5.191957
607	5.194524
608	5.193509
609	5.190952
610	5.186862
611	5.177937
612	5.168000
613	5.163010
614	5.161224
615	5.165340
616	5.166222
617	5.165278
618	5.166506
619	5.167011
620	5.164505
621	5.163904
622	5.165080
623	5.162378
624	5.158362
625	5.151155
626	5.145244
627	5.141200
628	5.138984
629	5.137573
630	5.140685
631	5.144524
632	5.149879
633	5.159836
634	5.172438
635	5.184074
636	5.194332
637	5.200877
638	5.205335
639	5.208289
640	5.209124
641	5.209095
642	5.206923
643	5.201652
644	5.193820
645	5.184370
646	5.175362
647	5.169099
648	5.159343
649	5.146542
650	5.127150
651	5.107585
652	5.091429
653	5.085410
654	5.087989
655	5.096136
656	5.106926
657	5.124281
658	5.139721
659	5.153707
660	5.177729
661	5.206543
662	5.246053
663	5.279196
664	5.308373
665	5.321605
666	5.331856
667	5.336946
668	5.341335
669	5.345299
670	5.347205
671	5.347940
672	5.346968
673	5.350166
674	5.353430
675	5.349465
676	5.345728
677	5.342211
678	5.332108
679	5.316644
680	5.288218
681	5.244921
682	5.192803
683	5.133111
684	5.077887
685	5.029678
686	4.989165
687	4.952048
688	4.921360
689	4.900012
690	4.886231
691	4.892968
692	4.908616
693	4.939386
694	4.972248
695	5.005138
696	5.033009
697	5.057739
698	5.079723
699	5.100414
700	5.119465
701	5.135505
702	5.150977
703	5.165336
704	5.174869
705	5.183826
706	5.192360
707	5.199642
708	5.202451
709	5.198824
710	5.173211
711	5.137940
712	5.087591
713	5.024349
714	4.954767
715	4.883718
716	4.815865
717	4.750718
718	4.691725
719	4.637364
720	4.589533
721	4.551403
722	4.521708
723	4.508622
724	4.517950
725	4.537439
726	4.565938
727	4.599230
728	4.635826
729	4.677429
730	4.724444
731	4.776214
732	4.829044
733	4.883850
734	4.941033
735	4.988386
736	5.034348
737	5.079515
738	5.115614
739	5.148118
740	5.176365
741	5.197591
742	5.216909
743	5.236174
744	5.250463
745	5.261576
746	5.267622
747	5.270571
748	5.268404
749	5.250033
750	5.221127
751	5.180705
752	5.108737
753	5.002220
754	4.869734
755	4.693645
756	4.510173
757	4.323954
758	4.143720
759	3.999252
760	3.882586
761	3.813277
762	3.786246
763	3.791277
764	3.847338
765	3.944612
766	4.068012
767	4.223126
768	4.391666
769	4.558468
770	4.709923
771	4.836792
772	4.947383
773	5.037508
774	5.094475
775	5.136982
776	5.165503
777	5.178650
778	5.186881
779	5.190530
780	5.186212
