Wavelength(nm)	PFD(umol m-2 s-1)
380	0.034120
381	0.035860
382	0.037870
383	0.039930
384	0.042702
385	0.045677
386	0.049920
387	0.054041
388	0.057749
389	0.062759
390	0.070021
391	0.077391
392	0.084874
393	0.096796
394	0.111690
395	0.129164
396	0.147694
397	0.167781
398	0.188244
399	0.210923
400	0.233652
401	0.254841
402	0.276461
403	0.299476
404	0.320191
405	0.336004
406	0.351727
407	0.367320
408	0.381331
409	0.394164
410	0.406985
411	0.419834
412	0.431431
413	0.442792
414	0.451276
415	0.459689
416	0.468935
417	0.477347
418	0.482259
419	0.486996
420	0.491353
421	0.495071
422	0.498014
423	0.499356
424	0.499549
425	0.497715
426	0.495055
427	0.496808
428	0.499383
429	0.504668
430	0.510299
431	0.518096
432	0.525682
433	0.532539
434	0.541631
435	0.554434
436	0.569729
437	0.587425
438	0.601508
439	0.613615
440	0.624724
441	0.635580
442	0.645429
443	0.655493
444	0.670886
445	0.685944
446	0.699328
447	0.711024
448	0.719139
449	0.727223
450	0.735265
451	0.744555
452	0.754681
453	0.762067
454	0.768525
455	0.773688
456	0.778711
457	0.784133
458	0.789738
459	0.796155
460	0.801747
461	0.805556
462	0.808708
463	0.811101
464	0.813441
465	0.815749
466	0.817846
467	0.819879
468	0.822009
469	0.824299
470	0.828785
471	0.833457
472	0.838777
473	0.844564
474	0.851140
475	0.857737
476	0.864354
477	0.869563
478	0.874113
479	0.874203
480	0.873417
481	0.870859
482	0.868567
483	0.867842
484	0.867682
485	0.868758
486	0.869331
487	0.869353
488	0.870554
489	0.872413
490	0.878414
491	0.885419
492	0.895104
493	0.904247
494	0.909509
495	0.913773
496	0.915797
497	0.918322
498	0.921390
499	0.923325
500	0.924656
501	0.926746
502	0.928998
503	0.932022
504	0.935151
505	0.938752
506	0.943059
507	0.948650
508	0.953086
509	0.956507
510	0.956711
511	0.955613
512	0.952837
513	0.950014
514	0.949110
515	0.948723
516	0.949803
517	0.951563
518	0.954162
519	0.957878
520	0.962236
521	0.968579
522	0.975426
523	0.986245
524	0.997049
525	1.007707
526	1.017206
527	1.024979
528	1.031622
529	1.037516
530	1.043597
531	1.049738
532	1.057257
533	1.064294
534	1.069279
535	1.072931
536	1.074565
537	1.077068
538	1.080147
539	1.084377
540	1.088874
541	1.092404
542	1.095970
543	1.099644
544	1.103610
545	1.107954
546	1.112771
547	1.117853
548	1.122989
549	1.128017
550	1.131527
551	1.134784
552	1.137422
553	1.139346
554	1.140590
555	1.141555
556	1.142414
557	1.144550
558	1.146543
559	1.147633
560	1.148734
561	1.149855
562	1.151648
563	1.153828
564	1.156250
565	1.158701
566	1.161073
567	1.163405
568	1.165656
569	1.168104
570	1.170702
571	1.173129
572	1.175539
573	1.178473
574	1.181691
575	1.185624
576	1.189859
577	1.194365
578	1.198299
579	1.202051
580	1.204983
581	1.207304
582	1.207922
583	1.207780
584	1.206921
585	1.206078
586	1.205221
587	1.203747
588	1.202324
589	1.201055
590	1.200510
591	1.200596
592	1.201258
593	1.202240
594	1.206068
595	1.210255
596	1.215194
597	1.219799
598	1.224172
599	1.228480
600	1.232645
601	1.235843
602	1.238974
603	1.241999
604	1.244270
605	1.246167
606	1.247545
607	1.248738
608	1.249397
609	1.248916
610	1.247300
611	1.245489
612	1.243735
613	1.243620
614	1.243700
615	1.244142
616	1.244491
617	1.244785
618	1.245123
619	1.245353
620	1.245209
621	1.245192
622	1.245291
623	1.244670
624	1.243920
625	1.243495
626	1.242427
627	1.240445
628	1.239863
629	1.239867
630	1.241441
631	1.243039
632	1.244685
633	1.247467
634	1.250901
635	1.254121
636	1.257059
637	1.259238
638	1.260814
639	1.261958
640	1.261694
641	1.261101
642	1.259912
643	1.257883
644	1.255157
645	1.253066
646	1.251138
647	1.249523
648	1.246816
649	1.243156
650	1.237708
651	1.232457
652	1.229086
653	1.227620
654	1.227770
655	1.229728
656	1.232127
657	1.235212
658	1.239017
659	1.243372
660	1.248960
661	1.255411
662	1.263930
663	1.270675
664	1.276314
665	1.278096
666	1.279587
667	1.280728
668	1.280818
669	1.280458
670	1.281007
671	1.281398
672	1.281559
673	1.281091
674	1.280537
675	1.280640
676	1.280048
677	1.278782
678	1.276945
679	1.274039
680	1.268258
681	1.258422
682	1.246207
683	1.233843
684	1.222468
685	1.212643
686	1.205759
687	1.199833
688	1.194550
689	1.192261
690	1.192400
691	1.197729
692	1.205175
693	1.216171
694	1.227570
695	1.239059
696	1.250079
697	1.259713
698	1.268135
699	1.276080
700	1.283482
701	1.289889
702	1.296311
703	1.302538
704	1.307695
705	1.312295
706	1.316486
707	1.320753
708	1.323391
709	1.323676
710	1.318629
711	1.310317
712	1.295628
713	1.279467
714	1.262438
715	1.244151
716	1.228203
717	1.214250
718	1.199755
719	1.186329
720	1.174493
721	1.166608
722	1.161139
723	1.159899
724	1.162377
725	1.167091
726	1.175811
727	1.185849
728	1.196769
729	1.208753
730	1.222052
731	1.236506
732	1.252854
733	1.268862
734	1.284423
735	1.298491
736	1.312154
737	1.325366
738	1.335699
739	1.345063
740	1.353454
741	1.360293
742	1.366448
743	1.371844
744	1.376406
745	1.379891
746	1.380602
747	1.381673
748	1.382101
749	1.379163
750	1.371942
751	1.361061
752	1.342292
753	1.312304
754	1.274809
755	1.227912
756	1.178657
757	1.129094
758	1.084293
759	1.046567
760	1.015463
761	0.998953
762	0.993831
763	0.997171
764	1.013560
765	1.040900
766	1.074966
767	1.116763
768	1.161909
769	1.206529
770	1.247087
771	1.281672
772	1.311098
773	1.333236
774	1.348526
775	1.360392
776	1.368741
777	1.372941
778	1.376287
779	1.378806
780	1.377263
