Wavelength(nm)	PFD(umol m-2 s-1)
380	0.002351
381	0.002383
382	0.002322
383	0.002252
384	0.002245
385	0.002238
386	0.002226
387	0.002204
388	0.002152
389	0.002109
390	0.002080
391	0.002065
392	0.002066
393	0.002071
394	0.002079
395	0.002055
396	0.002018
397	0.002077
398	0.002154
399	0.002110
400	0.002079
401	0.002260
402	0.002483
403	0.002866
404	0.003233
405	0.003563
406	0.004020
407	0.004635
408	0.005370
409	0.006195
410	0.007258
411	0.008428
412	0.010007
413	0.011683
414	0.014031
415	0.016472
416	0.019497
417	0.022722
418	0.026713
419	0.031081
420	0.036210
421	0.041850
422	0.048101
423	0.055154
424	0.062794
425	0.071893
426	0.081608
427	0.093085
428	0.104934
429	0.119361
430	0.134219
431	0.151637
432	0.169744
433	0.189852
434	0.210474
435	0.231894
436	0.252616
437	0.272672
438	0.289845
439	0.305452
440	0.315277
441	0.323480
442	0.323528
443	0.322404
444	0.313713
445	0.303824
446	0.288849
447	0.272740
448	0.254339
449	0.235685
450	0.216750
451	0.198824
452	0.181535
453	0.166137
454	0.151345
455	0.139025
456	0.127022
457	0.116570
458	0.106344
459	0.097365
460	0.088670
461	0.080627
462	0.073008
463	0.065884
464	0.059425
465	0.053376
466	0.048222
467	0.043333
468	0.039398
469	0.035583
470	0.032397
471	0.029361
472	0.026912
473	0.024617
474	0.022596
475	0.020761
476	0.019095
477	0.017630
478	0.016255
479	0.015016
480	0.013799
481	0.013196
482	0.012600
483	0.012038
484	0.011515
485	0.011081
486	0.010781
487	0.010629
488	0.010556
489	0.010528
490	0.010572
491	0.010633
492	0.010923
493	0.011232
494	0.011611
495	0.012040
496	0.012578
497	0.013127
498	0.013688
499	0.014320
500	0.014991
501	0.015825
502	0.016695
503	0.017588
504	0.018511
505	0.019563
506	0.020565
507	0.021469
508	0.022396
509	0.023342
510	0.024310
511	0.025288
512	0.026256
513	0.027220
514	0.028104
515	0.028959
516	0.029724
517	0.030567
518	0.031507
519	0.032290
520	0.032986
521	0.033670
522	0.034353
523	0.035003
524	0.035620
525	0.036111
526	0.036637
527	0.037215
528	0.037660
529	0.038017
530	0.038429
531	0.038855
532	0.039154
533	0.039462
534	0.039805
535	0.040078
536	0.040241
537	0.040431
538	0.040638
539	0.040801
540	0.040954
541	0.041056
542	0.041185
543	0.041411
544	0.041513
545	0.041455
546	0.041555
547	0.041741
548	0.041739
549	0.041705
550	0.041661
551	0.041661
552	0.041770
553	0.041767
554	0.041658
555	0.041629
556	0.041630
557	0.041546
558	0.041485
559	0.041545
560	0.041513
561	0.041346
562	0.041205
563	0.041079
564	0.041169
565	0.041262
566	0.041075
567	0.040927
568	0.040859
569	0.040779
570	0.040690
571	0.040555
572	0.040409
573	0.040259
574	0.040127
575	0.040043
576	0.039924
577	0.039773
578	0.039539
579	0.039282
580	0.039196
581	0.039067
582	0.038819
583	0.038695
584	0.038687
585	0.038476
586	0.038206
587	0.038084
588	0.037956
589	0.037816
590	0.037686
591	0.037563
592	0.037261
593	0.036924
594	0.036794
595	0.036752
596	0.036897
597	0.036801
598	0.036534
599	0.036404
600	0.036318
601	0.036385
602	0.036453
603	0.036521
604	0.036603
605	0.036691
606	0.036842
607	0.037029
608	0.037332
609	0.037726
610	0.038211
611	0.038644
612	0.039098
613	0.040019
614	0.040933
615	0.041833
616	0.042932
617	0.044144
618	0.045639
619	0.047274
620	0.049312
621	0.051403
622	0.053544
623	0.056281
624	0.059222
625	0.062643
626	0.066325
627	0.070377
628	0.074996
629	0.079862
630	0.085392
631	0.091349
632	0.098166
633	0.105666
634	0.113567
635	0.122813
636	0.132553
637	0.143420
638	0.155143
639	0.167492
640	0.181449
641	0.196103
642	0.212477
643	0.230026
644	0.248554
645	0.269155
646	0.290739
647	0.314857
648	0.340376
649	0.367126
650	0.396989
651	0.427937
652	0.461068
653	0.495400
654	0.530766
655	0.566548
656	0.601919
657	0.635464
658	0.666048
659	0.694397
660	0.713971
661	0.729247
662	0.734713
663	0.730861
664	0.721158
665	0.696284
666	0.667030
667	0.629741
668	0.586350
669	0.539866
670	0.489308
671	0.438916
672	0.388839
673	0.342550
674	0.298205
675	0.259392
676	0.224196
677	0.192502
678	0.167082
679	0.143626
680	0.123535
681	0.106783
682	0.091993
683	0.080249
684	0.069543
685	0.060461
686	0.052948
687	0.046176
688	0.040945
689	0.036352
690	0.032276
691	0.029161
692	0.026197
693	0.023424
694	0.021311
695	0.019491
696	0.018035
697	0.016477
698	0.014829
699	0.014073
700	0.013251
701	0.012192
702	0.011520
703	0.010976
704	0.010426
705	0.009942
706	0.009506
707	0.009185
708	0.008888
709	0.008624
710	0.008151
711	0.007743
712	0.007651
713	0.007599
714	0.007538
715	0.007251
716	0.007062
717	0.006956
718	0.006908
719	0.006805
720	0.006621
721	0.006596
722	0.006469
723	0.006019
724	0.005761
725	0.005666
726	0.005995
727	0.006042
728	0.005912
729	0.005667
730	0.005454
731	0.005271
732	0.005289
733	0.005368
734	0.005520
735	0.005188
736	0.005062
737	0.005355
738	0.004900
739	0.004587
740	0.004884
741	0.004804
742	0.004694
743	0.004792
744	0.004839
745	0.004854
746	0.004814
747	0.005033
748	0.005165
749	0.004468
750	0.004522
751	0.004894
752	0.005086
753	0.005177
754	0.005192
755	0.005077
756	0.004958
757	0.004887
758	0.005077
759	0.005214
760	0.005267
761	0.005047
762	0.005163
763	0.005330
764	0.005105
765	0.005299
766	0.005518
767	0.005292
768	0.005392
769	0.005376
770	0.004812
771	0.004950
772	0.005133
773	0.005092
774	0.004890
775	0.004701
776	0.004563
777	0.004684
778	0.004866
779	0.005082
780	0.004931
