Wavelength(nm)	PFD(umol m-2 s-1)
380	0.011091
381	0.010290
382	0.010623
383	0.011063
384	0.009849
385	0.008901
386	0.009755
387	0.010335
388	0.010071
389	0.009985
390	0.010208
391	0.010211
392	0.009977
393	0.009887
394	0.009891
395	0.009963
396	0.010061
397	0.010754
398	0.011563
399	0.013382
400	0.015211
401	0.016620
402	0.018207
403	0.020474
404	0.023357
405	0.027510
406	0.032642
407	0.038983
408	0.045774
409	0.052911
410	0.063250
411	0.075027
412	0.088921
413	0.103334
414	0.123061
415	0.143692
416	0.171010
417	0.200101
418	0.235980
419	0.274470
420	0.318198
421	0.367135
422	0.422318
423	0.485733
424	0.555144
425	0.635928
426	0.721530
427	0.821999
428	0.925603
429	1.051869
430	1.182223
431	1.337575
432	1.498644
433	1.676176
434	1.861145
435	2.057971
436	2.250842
437	2.439939
438	2.607635
439	2.763802
440	2.869899
441	2.962019
442	2.980798
443	2.988940
444	2.925898
445	2.850524
446	2.722384
447	2.582591
448	2.419125
449	2.248973
450	2.071167
451	1.900836
452	1.735180
453	1.586391
454	1.442979
455	1.321141
456	1.202256
457	1.104279
458	1.007957
459	0.921155
460	0.837840
461	0.762416
462	0.690508
463	0.622700
464	0.560571
465	0.501937
466	0.451243
467	0.402884
468	0.363642
469	0.325690
470	0.295931
471	0.267536
472	0.244453
473	0.222333
474	0.201936
475	0.184100
476	0.168598
477	0.155058
478	0.142417
479	0.131535
480	0.120959
481	0.112305
482	0.104112
483	0.098545
484	0.093304
485	0.088797
486	0.085441
487	0.083346
488	0.081784
489	0.080517
490	0.080132
491	0.079957
492	0.080450
493	0.081242
494	0.083725
495	0.086894
496	0.091578
497	0.095223
498	0.097738
499	0.102342
500	0.108071
501	0.114171
502	0.120367
503	0.125858
504	0.131471
505	0.137577
506	0.144157
507	0.151586
508	0.158760
509	0.165715
510	0.172093
511	0.178252
512	0.185853
513	0.193548
514	0.200098
515	0.206458
516	0.212240
517	0.218042
518	0.223864
519	0.229485
520	0.234998
521	0.240285
522	0.245537
523	0.250724
524	0.255576
525	0.259119
526	0.262661
527	0.266197
528	0.269836
529	0.273547
530	0.276203
531	0.278595
532	0.281154
533	0.283631
534	0.285744
535	0.287723
536	0.289496
537	0.291572
538	0.293851
539	0.295558
540	0.297134
541	0.298952
542	0.300447
543	0.300814
544	0.301339
545	0.302070
546	0.302833
547	0.303614
548	0.303489
549	0.303261
550	0.303587
551	0.304095
552	0.305043
553	0.305669
554	0.305990
555	0.305648
556	0.305063
557	0.304586
558	0.304177
559	0.304063
560	0.303651
561	0.302807
562	0.303317
563	0.304605
564	0.303945
565	0.302931
566	0.301462
567	0.300464
568	0.300425
569	0.299617
570	0.298216
571	0.297600
572	0.297157
573	0.296326
574	0.295565
575	0.294990
576	0.294042
577	0.292755
578	0.290390
579	0.287731
580	0.287129
581	0.286352
582	0.285095
583	0.284323
584	0.284008
585	0.281778
586	0.279001
587	0.278018
588	0.276999
589	0.275892
590	0.274364
591	0.272468
592	0.270908
593	0.269402
594	0.267426
595	0.266240
596	0.266737
597	0.266684
598	0.266242
599	0.264780
600	0.263288
601	0.262841
602	0.262516
603	0.262378
604	0.261742
605	0.260855
606	0.263228
607	0.265407
608	0.266235
609	0.267940
610	0.270516
611	0.274195
612	0.278208
613	0.282541
614	0.287471
615	0.293485
616	0.300892
617	0.309091
618	0.318897
619	0.329275
620	0.341159
621	0.353931
622	0.367535
623	0.385477
624	0.404685
625	0.425752
626	0.449716
627	0.477782
628	0.507337
629	0.537695
630	0.575580
631	0.615105
632	0.657886
633	0.707418
634	0.760891
635	0.821511
636	0.884500
637	0.952710
638	1.028334
639	1.109354
640	1.200250
641	1.295459
642	1.401299
643	1.515436
644	1.636469
645	1.773210
646	1.916054
647	2.072995
648	2.241249
649	2.419416
650	2.615642
651	2.818138
652	3.033074
653	3.254507
654	3.481555
655	3.705166
656	3.924593
657	4.129786
658	4.309859
659	4.470913
660	4.570599
661	4.639817
662	4.639474
663	4.580675
664	4.485135
665	4.298958
666	4.086024
667	3.823998
668	3.530658
669	3.221546
670	2.895830
671	2.576224
672	2.266025
673	1.984330
674	1.716693
675	1.486530
676	1.280747
677	1.098570
678	0.952189
679	0.818046
680	0.706133
681	0.610120
682	0.523501
683	0.456993
684	0.396419
685	0.345123
686	0.303659
687	0.266425
688	0.236711
689	0.210331
690	0.186642
691	0.166244
692	0.148910
693	0.137261
694	0.124286
695	0.111434
696	0.102649
697	0.094911
698	0.088090
699	0.080922
700	0.075059
701	0.071760
702	0.067312
703	0.062764
704	0.059696
705	0.057106
706	0.054869
707	0.052177
708	0.049010
709	0.045166
710	0.044957
711	0.044548
712	0.041376
713	0.040390
714	0.040235
715	0.038454
716	0.036644
717	0.034811
718	0.033615
719	0.032884
720	0.032805
721	0.032223
722	0.031845
723	0.032190
724	0.030601
725	0.028742
726	0.028889
727	0.028900
728	0.028888
729	0.029552
730	0.028827
731	0.026886
732	0.027086
733	0.026980
734	0.026476
735	0.026206
736	0.025588
737	0.024358
738	0.021649
739	0.020413
740	0.022996
741	0.022458
742	0.021369
743	0.021114
744	0.021239
745	0.021530
746	0.021931
747	0.022165
748	0.021848
749	0.019492
750	0.020215
751	0.021843
752	0.020790
753	0.021745
754	0.023378
755	0.023281
756	0.023170
757	0.022835
758	0.021392
759	0.021777
760	0.022726
761	0.022101
762	0.021151
763	0.020324
764	0.020561
765	0.020480
766	0.020853
767	0.023083
768	0.021742
769	0.020327
770	0.021563
771	0.021038
772	0.020491
773	0.020681
774	0.019586
775	0.018977
776	0.019321
777	0.018865
778	0.019452
779	0.021018
780	0.019286
