Wavelength(nm)	PFD(umol m-2 s-1)
380	0.002093
381	0.002122
382	0.002163
383	0.002206
384	0.002199
385	0.002178
386	0.002065
387	0.001944
388	0.001800
389	0.001735
390	0.001809
391	0.001847
392	0.001847
393	0.001850
394	0.001855
395	0.001834
396	0.001802
397	0.001852
398	0.001918
399	0.001880
400	0.001862
401	0.002117
402	0.002368
403	0.002597
404	0.002876
405	0.003255
406	0.003701
407	0.004228
408	0.004802
409	0.005411
410	0.006357
411	0.007454
412	0.008893
413	0.010413
414	0.012341
415	0.014370
416	0.017314
417	0.020356
418	0.023759
419	0.027512
420	0.031975
421	0.036989
422	0.042664
423	0.049023
424	0.055882
425	0.064052
426	0.072775
427	0.082940
428	0.093410
429	0.106180
430	0.119342
431	0.134855
432	0.150964
433	0.168793
434	0.187193
435	0.206488
436	0.225090
437	0.243028
438	0.258375
439	0.272315
440	0.280880
441	0.287935
442	0.287845
443	0.286703
444	0.278462
445	0.269195
446	0.255585
447	0.240986
448	0.224391
449	0.207585
450	0.190547
451	0.174481
452	0.159032
453	0.145448
454	0.132467
455	0.121535
456	0.110873
457	0.101776
458	0.092857
459	0.084939
460	0.077315
461	0.070360
462	0.063727
463	0.057469
464	0.051780
465	0.046441
466	0.041858
467	0.037497
468	0.034115
469	0.030851
470	0.028131
471	0.025519
472	0.023334
473	0.021315
474	0.019584
475	0.018059
476	0.016720
477	0.015374
478	0.014021
479	0.013071
480	0.012196
481	0.011508
482	0.010865
483	0.010467
484	0.010103
485	0.009813
486	0.009559
487	0.009344
488	0.009251
489	0.009226
490	0.009263
491	0.009314
492	0.009640
493	0.009973
494	0.010298
495	0.010664
496	0.011124
497	0.011674
498	0.012321
499	0.012918
500	0.013488
501	0.014207
502	0.014960
503	0.015803
504	0.016659
505	0.017562
506	0.018451
507	0.019311
508	0.020191
509	0.021087
510	0.021942
511	0.022782
512	0.023615
513	0.024450
514	0.025295
515	0.026117
516	0.026867
517	0.027601
518	0.028317
519	0.028901
520	0.029411
521	0.030054
522	0.030723
523	0.031278
524	0.031823
525	0.032328
526	0.032793
527	0.033200
528	0.033600
529	0.033996
530	0.034362
531	0.034721
532	0.034979
533	0.035244
534	0.035542
535	0.035778
536	0.035920
537	0.036086
538	0.036268
539	0.036341
540	0.036389
541	0.036571
542	0.036756
543	0.036954
544	0.037048
545	0.037006
546	0.037039
547	0.037114
548	0.037107
549	0.037085
550	0.037053
551	0.037032
552	0.037037
553	0.037042
554	0.037048
555	0.037052
556	0.037055
557	0.036895
558	0.036732
559	0.036594
560	0.036494
561	0.036448
562	0.036426
563	0.036417
564	0.036429
565	0.036428
566	0.036275
567	0.036189
568	0.036238
569	0.036107
570	0.035838
571	0.035772
572	0.035748
573	0.035523
574	0.035342
575	0.035275
576	0.035174
577	0.035043
578	0.034850
579	0.034641
580	0.034571
581	0.034465
582	0.034257
583	0.034099
584	0.033989
585	0.033788
586	0.033563
587	0.033463
588	0.033359
589	0.033246
590	0.033139
591	0.033040
592	0.032877
593	0.032695
594	0.032469
595	0.032280
596	0.032172
597	0.032063
598	0.031952
599	0.031858
600	0.031786
601	0.031846
602	0.031858
603	0.031800
604	0.031832
605	0.031911
606	0.032156
607	0.032386
608	0.032526
609	0.032805
610	0.033221
611	0.033691
612	0.034188
613	0.034854
614	0.035557
615	0.036329
616	0.037270
617	0.038308
618	0.039707
619	0.041149
620	0.042641
621	0.044375
622	0.046335
623	0.048599
624	0.051003
625	0.053932
626	0.057032
627	0.060371
628	0.064194
629	0.068234
630	0.073099
631	0.078287
632	0.084123
633	0.090456
634	0.097084
635	0.104990
636	0.113290
637	0.122452
638	0.132589
639	0.143437
640	0.155410
641	0.167859
642	0.181450
643	0.196358
644	0.212357
645	0.230005
646	0.248508
647	0.269294
648	0.291125
649	0.313875
650	0.339159
651	0.365474
652	0.394134
653	0.423571
654	0.453680
655	0.484017
656	0.514055
657	0.542770
658	0.569028
659	0.593431
660	0.609903
661	0.622614
662	0.626807
663	0.623018
664	0.614217
665	0.592896
666	0.567787
667	0.535691
668	0.498368
669	0.458411
670	0.415286
671	0.372310
672	0.329612
673	0.289881
674	0.251828
675	0.219117
676	0.189494
677	0.162863
678	0.141157
679	0.121251
680	0.104749
681	0.090551
682	0.077715
683	0.067848
684	0.058934
685	0.051508
686	0.045154
687	0.039356
688	0.034878
689	0.030946
690	0.027456
691	0.024789
692	0.022380
693	0.020390
694	0.018543
695	0.016791
696	0.015338
697	0.014229
698	0.013422
699	0.012443
700	0.011481
701	0.010575
702	0.010010
703	0.009553
704	0.009070
705	0.008651
706	0.008279
707	0.008005
708	0.007666
709	0.007231
710	0.006966
711	0.006719
712	0.006428
713	0.006461
714	0.006599
715	0.006354
716	0.006193
717	0.006103
718	0.005863
719	0.005738
720	0.005785
721	0.005610
722	0.005476
723	0.005544
724	0.005435
725	0.005263
726	0.005103
727	0.005118
728	0.005211
729	0.005001
730	0.004820
731	0.004663
732	0.004679
733	0.004645
734	0.004547
735	0.004649
736	0.004650
737	0.004453
738	0.004388
739	0.004441
740	0.004698
741	0.004632
742	0.004541
743	0.004627
744	0.004491
745	0.004320
746	0.004303
747	0.004495
748	0.004655
749	0.004297
750	0.004249
751	0.004314
752	0.004219
753	0.004210
754	0.004264
755	0.004431
756	0.004599
757	0.004721
758	0.004614
759	0.004643
760	0.004738
761	0.004830
762	0.004631
763	0.004442
764	0.004815
765	0.004731
766	0.004553
767	0.004647
768	0.004802
769	0.004796
770	0.004333
771	0.004197
772	0.004354
773	0.004925
774	0.004833
775	0.004547
776	0.004121
777	0.004212
778	0.004210
779	0.004099
780	0.004316
